Type,Dichroic
Maker,"Omega"
ProductName,"XF2004(410DRLP)"
Comment,""
Public,1
wavedataset
250,63.2751
251,59.9084
252,57.8707
253,57.1781
254,57.8546
255,59.9491
256,63.5169
257,68.5415
258,74.75
259,81.3167
260,86.6884
261,89.1047
262,87.8277
263,83.6566
264,78.0498
265,72.1866
266,66.7619
267,62.1339
268,58.4729
269,55.8508
270,54.2965
271,53.8333
272,54.5028
273,56.3766
274,59.5481
275,64.0846
276,69.8978
277,76.4904
278,82.6748
279,86.7212
280,87.3695
281,84.814
282,80.2842
283,74.9532
284,69.5202
285,64.3608
286,59.7086
287,55.7248
288,52.5143
289,50.1392
290,48.6398
291,48.058
292,48.4604
293,49.9555
294,52.703
295,56.8914
296,62.625
297,69.6064
298,76.5863
299,81.2475
300,81.804
301,78.867
302,74.6123
303,70.3754
304,66.2918
305,62.1006
306,57.6889
307,53.1961
308,48.8959
309,45.0603
310,41.8936
311,39.5383
312,38.1217
313,37.8282
314,39.0079
315,42.3535
316,49.0564
317,59.5648
318,66.091
319,56.9168
320,45.1598
321,39.7784
322,39.0595
323,40.9983
324,44.3628
325,47.9296
326,50.0192
327,48.8757
328,43.9673
329,36.6526
330,29.002
331,22.3714
332,17.1642
333,13.2575
334,10.3723
335,8.241
336,6.6534
337,5.4565
338,4.5419
339,3.8337
340,3.278
341,2.8367
342,2.4823
343,2.1948
344,1.9593
345,1.7649
346,1.6033
347,1.468
348,1.3542
349,1.2581
350,1.1767
351,1.1079
352,1.0495
353,0.9999
354,0.9579
355,0.9225
356,0.893
357,0.8687
358,0.8491
359,0.8337
360,0.8223
361,0.8145
362,0.8103
363,0.8093
364,0.8116
365,0.817
366,0.8257
367,0.8376
368,0.8528
369,0.8714
370,0.8936
371,0.9196
372,0.9496
373,0.9839
374,1.0229
375,1.0671
376,1.1168
377,1.1727
378,1.2355
379,1.3059
380,1.3847
381,1.473
382,1.5721
383,1.6832
384,1.8079
385,1.948
386,2.1058
387,2.2836
388,2.4843
389,2.7113
390,2.9684
391,3.2602
392,3.5918
393,3.9695
394,4.4003
395,4.8924
396,5.4553
397,6.1
398,6.8389
399,7.686
400,8.657
401,9.767
402,11.0356
403,12.4813
404,14.122
405,15.9736
406,18.0478
407,20.3493
408,22.8731
409,25.6011
410,28.5
411,31.5206
412,34.5993
413,37.6631
414,40.6375
415,43.4554
416,46.0677
417,48.4498
418,50.6063
419,52.5701
420,54.3987
421,56.168
422,57.9635
423,59.8716
424,61.9689
425,64.3098
426,66.9131
427,69.7499
428,72.737
429,75.7427
430,78.6076
431,81.1774
432,83.3368
433,85.0311
434,86.2686
435,87.1066
436,87.6294
437,87.9282
438,88.0868
439,88.1744
440,88.2431
441,88.3297
442,88.4572
443,88.6384
444,88.8777
445,89.1738
446,89.5211
447,89.9107
448,90.332
449,90.7728
450,91.2205
451,91.6623
452,92.0858
453,92.4796
454,92.8336
455,93.1392
456,93.3898
457,93.5808
458,93.71
459,93.7771
460,93.7839
461,93.7341
462,93.6327
463,93.486
464,93.3012
465,93.0859
466,92.8478
467,92.5946
468,92.3338
469,92.0721
470,91.8157
471,91.5703
472,91.3405
473,91.1304
474,90.9431
475,90.7812
476,90.6466
477,90.5404
478,90.4633
479,90.4154
480,90.3963
481,90.4052
482,90.441
483,90.5021
484,90.5869
485,90.6932
486,90.8188
487,90.9613
488,91.1181
489,91.2865
490,91.4638
491,91.6472
492,91.8338
493,92.0209
494,92.2058
495,92.3858
496,92.5585
497,92.7214
498,92.8725
499,93.0098
500,93.1317
501,93.2368
502,93.3239
503,93.3923
504,93.4413
505,93.4709
506,93.481
507,93.4719
508,93.4443
509,93.399
510,93.337
511,93.2595
512,93.1679
513,93.0637
514,92.9484
515,92.8236
516,92.691
517,92.5523
518,92.409
519,92.2629
520,92.1153
521,91.9677
522,91.8215
523,91.6779
524,91.5382
525,91.4032
526,91.2739
527,91.1512
528,91.0356
529,90.9278
530,90.8281
531,90.737
532,90.6547
533,90.5813
534,90.5168
535,90.4613
536,90.4146
537,90.3765
538,90.3468
539,90.3251
540,90.3112
541,90.3045
542,90.3046
543,90.311
544,90.3233
545,90.3409
546,90.3631
547,90.3895
548,90.4195
549,90.4525
550,90.4879
551,90.525
552,90.5634
553,90.6025
554,90.6419
555,90.6809
556,90.7193
557,90.7565
558,90.7922
559,90.826
560,90.8575
561,90.8864
562,90.9126
563,90.9358
564,90.9558
565,90.9724
566,90.9857
567,90.9955
568,91.0017
569,91.0045
570,91.0039
571,90.9999
572,90.9927
573,90.9823
574,90.969
575,90.9529
576,90.9342
577,90.9131
578,90.8899
579,90.8648
580,90.838
581,90.8098
582,90.7805
583,90.7502
584,90.7192
585,90.6879
586,90.6563
587,90.6247
588,90.5934
589,90.5626
590,90.5324
591,90.503
592,90.4746
593,90.4473
594,90.4213
595,90.3967
596,90.3735
597,90.3518
598,90.3318
599,90.3134
600,90.2966
601,90.2814
602,90.2679
603,90.2561
604,90.2459
605,90.2372
606,90.2301
607,90.2245
608,90.2202
609,90.2171
610,90.2152
611,90.2144
612,90.2145
613,90.2154
614,90.2169
615,90.2189
616,90.2214
617,90.224
618,90.2268
619,90.2295
620,90.232
621,90.2341
622,90.2358
623,90.2368
624,90.2371
625,90.2365
626,90.2349
627,90.2322
628,90.2283
629,90.223
630,90.2164
631,90.2082
632,90.1985
633,90.1871
634,90.1741
635,90.1593
636,90.1428
637,90.1246
638,90.1045
639,90.0827
640,90.0591
641,90.0337
642,90.0066
643,89.9779
644,89.9475
645,89.9156
646,89.8821
647,89.8473
648,89.8111
649,89.7737
650,89.7351
651,89.6955
652,89.655
653,89.6138
654,89.5718
655,89.5293
656,89.4865
657,89.4433
658,89.4
659,89.3568
660,89.3136
661,89.2707
662,89.2282
663,89.1863
664,89.145
665,89.1044
666,89.0648
667,89.0263
668,88.9889
669,88.9527
670,88.9179
671,88.8846
672,88.8529
673,88.8229
674,88.7946
675,88.7682
676,88.7436
677,88.7211
678,88.7006
679,88.6822
680,88.666
681,88.6519
682,88.6401
683,88.6306
684,88.6233
685,88.6184
686,88.6157
687,88.6154
688,88.6174
689,88.6216
690,88.6282
691,88.637
692,88.648
693,88.6612
694,88.6765
695,88.6939
696,88.7134
697,88.7349
698,88.7582
699,88.7834
700,88.8104
701,88.8384
702,88.868
703,88.8992
704,88.9317
705,88.9656
706,89.0008
707,89.0371
708,89.0745
709,89.1128
710,89.152
711,89.1919
712,89.2324
713,89.2735
714,89.315
715,89.3567
716,89.3986
717,89.4406
718,89.4825
719,89.5243
720,89.5658
721,89.6069
722,89.6475
723,89.6874
724,89.7267
725,89.7651
726,89.8025
727,89.8389
728,89.8742
729,89.9083
730,89.9409
731,89.9722
732,90.002
733,90.0301
734,90.0566
735,90.0813
736,90.1041
737,90.1251
738,90.1441
739,90.1611
740,90.1761
741,90.1888
742,90.1995
743,90.2079
744,90.2141
745,90.218
746,90.2196
747,90.219
748,90.216
749,90.2107
750,90.203
751,90.193
752,90.1807
753,90.1661
754,90.1492
755,90.1301
756,90.1087
757,90.0851
758,90.0594
759,90.0315
760,90.0015
761,89.9695
762,89.9356
763,89.8997
764,89.862
765,89.8225
766,89.7812
767,89.7383
768,89.6938
769,89.6478
770,89.6004
771,89.5516
772,89.5016
773,89.4503
774,89.398
775,89.3446
776,89.2904
777,89.2352
778,89.1794
779,89.1228
780,89.0657
781,89.0081
782,88.9501
783,88.8918
784,88.8333
785,88.7747
786,88.716
787,88.6573
788,88.5988
789,88.5405
790,88.4824
791,88.4248
792,88.3676
793,88.3109
794,88.2549
795,88.1995
796,88.1448
797,88.091
798,88.0381
799,87.9862
800,87.9352
801,87.8854
802,87.8367
803,87.7892
804,87.7429
805,87.6979
806,87.6544
807,87.6122
808,87.5714
809,87.5322
810,87.4945
811,87.4583
812,87.4238
813,87.3909
814,87.3597
815,87.3302
816,87.3024
817,87.2763
818,87.252
819,87.2295
820,87.2088
821,87.1899
822,87.1728
823,87.1576
824,87.1442
825,87.1327
826,87.123
827,87.1152
828,87.1092
829,87.105
830,87.1027
831,87.1022
832,87.1036
833,87.1068
834,87.1117
835,87.1185
836,87.127
837,87.1372
838,87.1492
839,87.1629
840,87.1782
841,87.1953
842,87.2139
843,87.2342
844,87.256
845,87.2793
846,87.3042
847,87.3305
848,87.3583
849,87.3875
850,87.418
851,87.4499
852,87.4831
853,87.5175
854,87.5531
855,87.5899
856,87.6277
857,87.6667
858,87.7067
859,87.7477
860,87.7896
861,87.8324
862,87.876
863,87.9204
864,87.9656
865,88.0115
866,88.058
867,88.1051
868,88.1527
869,88.2008
870,88.2494
871,88.2983
872,88.3476
873,88.3972
874,88.447
875,88.497
876,88.5471
877,88.5972
878,88.6475
879,88.6976
880,88.7477
881,88.7977
882,88.8475
883,88.897
884,88.9463
885,88.9952
886,89.0438
887,89.0919
888,89.1396
889,89.1867
890,89.2333
891,89.2792
892,89.3245
893,89.3691
894,89.4129
895,89.4559
896,89.4981
897,89.5395
898,89.5799
899,89.6194
900,89.6579
901,89.6951
902,89.7313
903,89.7665
904,89.8005
905,89.8334
906,89.8651
907,89.8956
908,89.9249
909,89.953
910,89.9798
911,90.0052
912,90.0294
913,90.0522
914,90.0736
915,90.0937
916,90.1124
917,90.1297
918,90.1455
919,90.1599
920,90.1729
921,90.1844
922,90.1944
923,90.203
924,90.2101
925,90.2158
926,90.2199
927,90.2226
928,90.2238
929,90.2235
930,90.2218
931,90.2185
932,90.2138
933,90.2077
934,90.2001
935,90.1911
936,90.1807
937,90.1688
938,90.1556
939,90.1409
940,90.1249
941,90.1076
942,90.0889
943,90.0689
944,90.0476
945,90.0251
946,90.0012
947,89.9762
948,89.95
949,89.9225
950,89.894
951,89.8642
952,89.8334
953,89.8015
954,89.7686
955,89.7347
956,89.6997
957,89.6638
958,89.627
959,89.5892
960,89.5506
961,89.5112
962,89.471
963,89.4299
964,89.3882
965,89.3457
966,89.3026
967,89.2588
968,89.2144
969,89.1694
970,89.1239
971,89.0778
972,89.0313
973,88.9843
974,88.937
975,88.8892
976,88.8411
977,88.7927
978,88.744
979,88.695
980,88.6458
981,88.5965
982,88.5469
983,88.4973
984,88.4476
985,88.3978
986,88.3479
987,88.2981
988,88.2483
989,88.1985
990,88.1489
991,88.0993
992,88.0499
993,88.0007
994,87.9516
995,87.9028
996,87.8542
997,87.8059
998,87.7579
999,87.7102
1000,87.6629
1001,87.6161
1002,87.5697
1003,87.5237
1004,87.4782
1005,87.433
1006,87.3884
1007,87.3442
1008,87.3005
1009,87.2573
1010,87.2147
1011,87.1726
1012,87.1312
1013,87.0903
1014,87.05
1015,87.0103
1016,86.9713
1017,86.933
1018,86.8953
1019,86.8583
1020,86.822
1021,86.7864
1022,86.7515
1023,86.7174
1024,86.684
1025,86.6514
1026,86.6195
1027,86.5885
1028,86.5582
1029,86.5287
1030,86.5
1031,86.4721
1032,86.445
1033,86.4188
1034,86.3934
1035,86.3689
1036,86.3452
1037,86.3223
1038,86.3003
1039,86.2792
1040,86.2589
1041,86.2395
1042,86.221
1043,86.2034
1044,86.1866
1045,86.1707
1046,86.1557
1047,86.1416
1048,86.1283
1049,86.116
1050,86.1045
1051,86.0939
1052,86.0842
1053,86.0754
1054,86.0675
1055,86.0604
1056,86.0542
1057,86.0489
1058,86.0445
1059,86.0409
1060,86.0382
1061,86.0364
1062,86.0355
1063,86.0353
1064,86.0361
1065,86.0377
1066,86.0401
1067,86.0434
1068,86.0475
1069,86.0524
1070,86.0582
1071,86.0647
1072,86.0721
1073,86.0803
1074,86.0892
1075,86.099
1076,86.1095
1077,86.1208
1078,86.1329
1079,86.1457
1080,86.1593
1081,86.1736
1082,86.1887
1083,86.2045
1084,86.2209
1085,86.2381
1086,86.256
1087,86.2746
1088,86.2938
1089,86.3137
1090,86.3343
1091,86.3555
1092,86.3773
1093,86.3998
1094,86.4229
1095,86.4466
1096,86.4709
1097,86.4957
1098,86.5212
1099,86.5472
1100,86.5737
