Type,Emitter
Maker,"Omega"
ProductName,"XF3301(525WB20)"
Comment,""
Public,1
wavedataset
300,0.0001
301,0.00012
302,0.00014
303,0.00015
304,0.00017
305,0.00017
306,0.00017
307,0.00016
308,0.00013
309,0.00011
310,9.4E-05
311,8.1E-05
312,7.6E-05
313,7.8E-05
314,8.5E-05
315,9.4E-05
316,0.0001
317,0.00011
318,0.00012
319,0.00014
320,0.00017
321,0.0002
322,0.00023
323,0.00026
324,0.00028
325,0.00028
326,0.00027
327,0.00026
328,0.00026
329,0.00027
330,0.00027
331,0.00029
332,0.00029
333,0.00029
334,0.00028
335,0.00026
336,0.00024
337,0.00023
338,0.00023
339,0.00024
340,0.00026
341,0.00026
342,0.00026
343,0.00025
344,0.00023
345,0.0002
346,0.00018
347,0.00017
348,0.00019
349,0.00023
350,0.00029
351,0.00036
352,0.00042
353,0.00046
354,0.00046
355,0.00042
356,0.00036
357,0.0003
358,0.00024
359,0.00018
360,0.00015
361,0.00014
362,0.00014
363,0.00014
364,0.00013
365,0.00013
366,0.00012
367,0.0001
368,9.3E-05
369,8.3E-05
370,7.7E-05
371,7.6E-05
372,8.2E-05
373,8.9E-05
374,9.6E-05
375,0.0001
376,0.00011
377,0.00012
378,0.00012
379,0.00012
380,0.00011
381,0.00011
382,0.0001
383,9.4E-05
384,8.9E-05
385,8.8E-05
386,9.1E-05
387,9.7E-05
388,0.0001
389,0.00011
390,0.00011
391,0.00012
392,0.00011
393,0.0001
394,8.7E-05
395,7.4E-05
396,6.3E-05
397,5.6E-05
398,5.2E-05
399,5.1E-05
400,5.2E-05
401,5.1E-05
402,4.7E-05
403,4E-05
404,3.3E-05
405,2.7E-05
406,2.2E-05
407,2E-05
408,2.1E-05
409,2.2E-05
410,2.5E-05
411,2.6E-05
412,2.7E-05
413,2.7E-05
414,2.7E-05
415,2.7E-05
416,2.8E-05
417,2.8E-05
418,2.8E-05
419,2.7E-05
420,2.6E-05
421,2.4E-05
422,2.1E-05
423,1.9E-05
424,1.8E-05
425,1.8E-05
426,1.9E-05
427,2E-05
428,2.2E-05
429,2.3E-05
430,2.5E-05
431,2.6E-05
432,2.6E-05
433,2.7E-05
434,2.7E-05
435,2.7E-05
436,2.5E-05
437,2.3E-05
438,1.9E-05
439,1.6E-05
440,1.3E-05
441,1E-05
442,8E-06
443,7E-06
444,6E-06
445,5E-06
446,5E-06
447,5E-06
448,5E-06
449,6E-06
450,8E-06
451,9E-06
452,1.1E-05
453,1.3E-05
454,1.5E-05
455,1.7E-05
456,1.8E-05
457,1.9E-05
458,1.9E-05
459,2E-05
460,2.1E-05
461,2.1E-05
462,2.1E-05
463,2.1E-05
464,2.1E-05
465,2E-05
466,1.9E-05
467,1.8E-05
468,1.7E-05
469,1.5E-05
470,1.5E-05
471,1.5E-05
472,1.6E-05
473,1.7E-05
474,1.9E-05
475,2E-05
476,2.1E-05
477,2E-05
478,1.8E-05
479,1.5E-05
480,1.3E-05
481,1.1E-05
482,1E-05
483,1.1E-05
484,1.3E-05
485,1.6E-05
486,1.8E-05
487,2E-05
488,2.3E-05
489,2.7E-05
490,3.3E-05
491,4.3E-05
492,5.7E-05
493,7.5E-05
494,9.7E-05
495,0.00012
496,0.00015
497,0.00019
498,0.00023
499,0.00028
500,0.00037
501,0.00049
502,0.0007
503,0.001
504,0.0016
505,0.0027
506,0.0047
507,0.0088
508,0.018
509,0.04
510,0.1
511,0.3
512,0.89
513,2.32
514,5.13
515,9.75
516,16.4
517,25
518,35.1
519,45.9
520,56.4
521,65.6
522,73.2
523,78.9
524,82.8
525,85.2
526,86.6
527,87
528,86.3
529,84.1
530,79.9
531,73.5
532,65
533,54.8
534,43.8
535,33
536,23.4
537,15.6
538,9.69
539,5.71
540,3.26
541,1.84
542,1.04
543,0.58
544,0.31
545,0.15
546,0.072
547,0.035
548,0.018
549,0.0099
550,0.0058
551,0.0036
552,0.0023
553,0.0015
554,0.001
555,0.00073
556,0.00053
557,0.0004
558,0.00031
559,0.00025
560,0.00021
561,0.00018
562,0.00016
563,0.00014
564,0.00012
565,0.00011
566,9.9E-05
567,9E-05
568,8.4E-05
569,8.1E-05
570,7.9E-05
571,7.9E-05
572,8E-05
573,8.3E-05
574,8.6E-05
575,8.8E-05
576,8.9E-05
577,8.9E-05
578,8.7E-05
579,8.3E-05
580,7.8E-05
581,7.3E-05
582,6.8E-05
583,6.5E-05
584,6.3E-05
585,6.4E-05
586,6.9E-05
587,7.8E-05
588,9.1E-05
589,0.00011
590,0.00012
591,0.00014
592,0.00014
593,0.00014
594,0.00014
595,0.00012
596,9.5E-05
597,7.1E-05
598,4.9E-05
599,3.2E-05
600,2.1E-05
601,1.4E-05
602,1.1E-05
603,1.1E-05
604,1E-05
605,1E-05
606,9E-06
607,8E-06
608,7E-06
609,7E-06
610,6E-06
611,6E-06
612,7E-06
613,8E-06
614,9E-06
615,9E-06
616,1E-05
617,1E-05
618,1E-05
619,9E-06
620,9E-06
621,9E-06
622,9E-06
623,9E-06
624,9E-06
625,9E-06
626,9E-06
627,1E-05
628,1E-05
629,1E-05
630,1E-05
631,9E-06
632,9E-06
633,8E-06
634,7E-06
635,6E-06
636,5E-06
637,5E-06
638,5E-06
639,5E-06
640,5E-06
641,6E-06
642,6E-06
643,6E-06
644,6E-06
645,5E-06
646,5E-06
647,5E-06
648,6E-06
649,6E-06
650,7E-06
651,9E-06
652,1E-05
653,1E-05
654,1E-05
655,1E-05
656,1E-05
657,9E-06
658,9E-06
659,8E-06
660,8E-06
661,7E-06
662,7E-06
663,7E-06
664,7E-06
665,7E-06
666,8E-06
667,9E-06
668,1E-05
669,1.1E-05
670,1.2E-05
671,1.2E-05
672,1.3E-05
673,1.3E-05
674,1.2E-05
675,1.2E-05
676,1.2E-05
677,1.1E-05
678,1E-05
679,9E-06
680,9E-06
681,8E-06
682,8E-06
683,8E-06
684,9E-06
685,1.1E-05
686,1.2E-05
687,1.5E-05
688,1.7E-05
689,1.9E-05
690,2.1E-05
691,2.2E-05
692,2.2E-05
693,2.1E-05
694,1.9E-05
695,1.7E-05
696,1.6E-05
697,1.5E-05
698,1.6E-05
699,1.7E-05
700,1.9E-05
701,2.1E-05
702,2.3E-05
703,2.4E-05
704,2.4E-05
705,2.4E-05
706,2.2E-05
707,2E-05
708,1.8E-05
709,1.6E-05
710,1.4E-05
711,1.3E-05
712,1.3E-05
713,1.6E-05
714,1.8E-05
715,2.2E-05
716,2.6E-05
717,3E-05
718,3.2E-05
719,3.3E-05
720,3.3E-05
721,3.2E-05
722,3E-05
723,2.8E-05
724,2.7E-05
725,2.5E-05
726,2.3E-05
727,2E-05
728,1.8E-05
729,1.5E-05
730,1.2E-05
731,1E-05
732,9E-06
733,1E-05
734,1.2E-05
735,1.6E-05
736,2E-05
737,2.5E-05
738,3E-05
739,3.3E-05
740,3.6E-05
741,3.7E-05
742,3.8E-05
743,3.8E-05
744,3.8E-05
745,3.9E-05
746,4.2E-05
747,4.7E-05
748,5.3E-05
749,5.8E-05
750,6.2E-05
751,6.5E-05
752,6.7E-05
753,6.9E-05
754,7.2E-05
755,7.6E-05
756,8E-05
757,8.4E-05
758,8.4E-05
759,8.2E-05
760,7.5E-05
761,6.6E-05
762,5.5E-05
763,4.4E-05
764,3.6E-05
765,2.9E-05
766,2.4E-05
767,2.2E-05
768,2.1E-05
769,2.3E-05
770,2.8E-05
771,3.5E-05
772,4.3E-05
773,5E-05
774,5.6E-05
775,5.9E-05
776,5.9E-05
777,5.6E-05
778,5.2E-05
779,4.9E-05
780,4.5E-05
781,4.3E-05
782,4.1E-05
783,4.1E-05
784,4E-05
785,4E-05
786,3.9E-05
787,3.8E-05
788,3.7E-05
789,3.7E-05
790,3.9E-05
791,4.5E-05
792,5.5E-05
793,7E-05
794,8.9E-05
795,0.00011
796,0.00014
797,0.00017
798,0.0002
799,0.00024
800,0.00027
801,0.0003
802,0.00031
803,0.00032
804,0.00032
805,0.0003
806,0.00029
807,0.00027
808,0.00025
809,0.00024
810,0.00024
811,0.00024
812,0.00025
813,0.00024
814,0.00023
815,0.00021
816,0.00019
817,0.00016
818,0.00013
819,0.00012
820,0.00011
821,0.00013
822,0.00017
823,0.00022
824,0.00027
825,0.00032
826,0.00035
827,0.00036
828,0.00034
829,0.0003
830,0.00026
831,0.00022
832,0.00019
833,0.00018
834,0.00019
835,0.00021
836,0.00024
837,0.00026
838,0.00028
839,0.00029
840,0.00029
841,0.00027
842,0.00026
843,0.00026
844,0.00028
845,0.00034
846,0.00043
847,0.00055
848,0.00069
849,0.00085
850,0.001
851,0.0012
852,0.0013
853,0.0014
854,0.0015
855,0.0015
856,0.0014
857,0.0012
858,0.001
859,0.00085
860,0.00068
861,0.00056
862,0.00049
863,0.00048
864,0.00051
865,0.00056
866,0.00065
867,0.00077
868,0.00093
869,0.0011
870,0.0013
871,0.0016
872,0.0018
873,0.0021
874,0.0024
875,0.0027
876,0.0031
877,0.0035
878,0.0039
879,0.0043
880,0.0045
881,0.0046
882,0.0043
883,0.0039
884,0.0033
885,0.0026
886,0.002
887,0.0015
888,0.0011
889,0.00084
890,0.0007
891,0.00062
892,0.0006
893,0.00058
894,0.00057
895,0.00057
896,0.00056
897,0.00056
898,0.00055
899,0.00054
900,0.00053
